
time,npos,epos,alt,phi,theta,psi,vel,alpha,beta,p,q,r,nx,ny,nz,mach,qbar,ps,thrust,ele,ail,rud

 0.00000, 0.00000, 0.00000,10000.00000, 0.00000, 3.59734, 0.00000,500.00000, 3.59734, 0.00000, 0.00000, 0.00000, 0.00000,2080.91822,-2.25196,-0.00000,-0.00000, 0.00000, 0.00000,-495838.16356,19.06597,-0.00000,-0.00000,
 0.10000,-0.12404, 0.00000,10000.00584,-0.00000, 3.41862,-0.00000,496.27655, 3.43217, 0.00000,-0.00000,-2.60786,-0.00000,2078.59724,-2.25196,-0.16006,-0.00346,-3.27258,-0.00033,-492114.70884,-9.08090,-0.00000,-0.00000,
 0.20000,-0.97956, 0.00000,9999.93949,-0.00000, 3.24132,-0.00000,485.52829, 3.38079, 0.00000,-0.00000,-1.70950,-0.00000,2076.56516,-2.25196,-0.09827,-0.01344,-12.71874, 0.00342,-481366.45672,-1.16069,-0.00000,-0.00000,
 0.30000,-3.22303, 0.00000,9999.74412,-0.00000, 3.06036,-0.00000,468.64444, 3.38294, 0.00000,-0.00000,-1.62186,-0.00000,2074.76668,-2.25196,-0.20838,-0.02912,-27.55658, 0.01447,-464482.60694,-1.83381,-0.00000,-0.00000,
 0.40000,-7.42725,-0.00000,9999.35984,-0.00000, 2.90502,-0.00000,446.45891, 3.47270, 0.00000,-0.00000,-1.53760,-0.00000,2073.24234,-2.25196,-0.26733,-0.04973,-47.05276, 0.03619,-442297.06979,-2.56482,-0.00000,-0.00000,
 0.50000,-14.07996,-0.00000,9998.73537,-0.00000, 2.76157,-0.00000,419.81355, 3.63422, 0.00000,-0.00000,-1.33856,-0.00000,2071.97690,-2.25196,-0.33874,-0.07447,-70.46702, 0.07150,-415651.71066,-2.20211,-0.00000,-0.00000,
 0.60000,-23.58547,-0.00000,9997.82166,-0.00000, 2.63445,-0.00000,389.53903, 3.86438, 0.00000,-0.00000,-1.19221,-0.00000,2070.96606,-2.25196,-0.41318,-0.10259,-97.06895, 0.12315,-385377.19135,-2.43550,-0.00000,-0.00000,
 0.70000,-36.26634,-0.00000,9996.57498,-0.00000, 2.52370,-0.00000,356.43756, 4.15822, 0.00000,-0.00000,-1.02755,-0.00000,2070.20109,-2.25196,-0.48392,-0.13334,-126.15319, 0.19363,-352275.72241,-2.51429,-0.00000,-0.00000,
 0.80000,-52.36653,-0.00000,9994.95700,-0.00000, 2.42908,-0.00000,321.27746, 4.50896, 0.00000,-0.00000,-0.86360,-0.00000,2069.66930,-2.25196,-0.55251,-0.16599,-157.04420, 0.28511,-317115.62549,-2.61849,-0.00000,-0.00000,
 0.90000,-72.05525,-0.00000,9992.93501,-0.00000, 2.35082,-0.00000,284.78363, 4.91011, 0.00000,-0.00000,-0.70197,-0.00000,2069.35641,-2.25196,-0.61623,-0.19989,-189.10465, 0.39942,-280621.79765,-2.74517,-0.00000,-0.00000,
 1.00000,-95.43170,-0.00000,9990.48226,-0.00000, 2.28865,-0.00000,247.63106, 5.35463, 0.00000,-0.00000,-0.54201,-0.00000,2069.24924,-2.25196,-0.67397,-0.23440,-221.74110, 0.53809,256530.77266,-2.87005,-0.00000,-0.00000,
 1.10000,-122.40254,-0.00000,9987.58625,-0.00000, 2.24220,-0.00000,214.23277, 5.80669, 0.00000,-0.00000,-0.38941,-0.00000,2071.63822,-2.25196,-0.71502,-0.26542,-251.07488, 0.70181,289929.06642,-2.96530,-0.00000,-0.00000,
 1.20000,-152.33368,-0.00000,9984.27379,-0.00000, 2.21013,-0.00000,188.37553, 6.22941, 0.00000,-0.00000,-0.25494,-0.00000,2073.93651,-2.25196,-0.73195,-0.28944,-273.77797, 0.88908,315786.31007,-3.06081,-0.00000,-0.00000,
 1.30000,-184.48728,-0.00000,9980.58573,-0.00000, 2.19066,-0.00000,169.72023, 6.61511, 0.00000,-0.00000,-0.13745,-0.00000,2076.11833,-2.25196,-0.72767,-0.30677,-290.14871, 1.09759,334441.60962,-3.13897,-0.00000,-0.00000,
 1.40000,-218.16331,-0.00000,9976.56737,-0.00000, 2.18205,-0.00000,157.85249, 6.95773, 0.00000,-0.00000,-0.03766,-0.00000,2078.16211,-2.25196,-0.70511,-0.31780,-300.55160, 1.32477,346309.34278,-3.20544,-0.00000,-0.00000,
 1.50000,-252.70635,-0.00000,9972.26711,-0.00000, 2.18255,-0.00000,152.29611, 7.25271, 0.00000,-0.00000, 0.04481,-0.00000,2080.05048,-2.25196,-0.66703,-0.32297,-305.40551, 1.56788,351865.72196,-3.25841,-0.00000,-0.00000,
 1.60000,-287.51117,-0.00000,9967.73520,-0.00000, 2.19045,-0.00000,152.52616, 7.49690, 0.00000,-0.00000, 0.11051,-0.00000,2081.77004,-2.25196,-0.61617,-0.32276,-305.17216, 1.82409,351635.68050,-3.29758,-0.00000,-0.00000,
 1.70000,-322.02692,-0.00000,9963.02261,-0.00000, 2.20412,-0.00000,157.98153, 7.68845, 0.00000,-0.00000, 0.16022, 0.00000,2083.31122,-2.25196,-0.55513,-0.31770,-300.34502, 2.09052,346180.30497,-3.32329,-0.00000,-0.00000,
 1.80000,-355.76018,-0.00000,9958.17996,-0.00000, 2.22199,-0.00000,168.07690, 7.82673, 0.00000,-0.00000, 0.19495, 0.00000,2084.66808,-2.25196,-0.48636,-0.30834,-291.43891, 2.36430,336084.93710,-3.33577,-0.00000,-0.00000,
 1.90000,-388.27682,-0.00000,9953.25668,-0.00000, 2.24265,-0.00000,182.21378, 7.91219, 0.00000,-0.00000, 0.21587, 0.00000,2085.83798,-2.25196,-0.41214,-0.29522,-278.98017, 2.64264,321948.05825,-3.33563,-0.00000,-0.00000,
 2.00000,-419.20276,-0.00000,9948.30014,-0.00000, 2.26475,-0.00000,199.79079, 7.94621, 0.00000,-0.00000, 0.22428, 0.00000,2086.82138,-2.25196,-0.33460,-0.27890,-263.49768, 2.92286,304371.04968,-3.32358,-0.00000,-0.00000,
 2.10000,-448.22384,-0.00000,9943.35506,-0.00000, 2.28713,-0.00000,220.21294, 7.93104, 0.00000, 0.00000, 0.22158, 0.00000,2087.62146,-2.25196,-0.25563,-0.25994,-245.51467, 3.20243,283948.89660,-3.30054,-0.00000,-0.00000,
 2.20000,-475.08470,-0.00000,9938.46291,-0.00000, 2.30874,-0.00000,242.89995, 7.86960, 0.00000, 0.00000, 0.20920, 0.00000,2088.24386,-2.25196,-0.17696,-0.23888,-225.54145, 3.47901,261261.88464,-3.26750,-0.00000,-0.00000,
 2.30000,-499.58699,-0.00000,9933.66148,-0.00000, 2.32870,-0.00000,267.29352, 7.76544,-0.00000, 0.00000, 0.18861, 0.00000,2088.69636,-2.25196,-0.10010,-0.21624,-204.06897, 3.75046,236868.31745,-3.22556,-0.00000,-0.00000,
 2.40000,-521.58682,-0.00000,9928.98457,-0.00000, 2.34624,-0.00000,292.86357, 7.62253,-0.00000, 0.00000, 0.16128, 0.00000,2088.98850,-2.25196,-0.02636,-0.19250,-181.56333, 4.01487,211298.26616,-3.17590,-0.00000,-0.00000,
 2.50000,-540.99166,-0.00000,9924.46176,-0.00000, 2.36078, 0.00000,319.11349, 7.44520,-0.00000, 0.00000, 0.12865, 0.00000,2089.13134,-2.25196, 0.04318,-0.16813,-158.46121, 4.27056,185048.34485,-3.11969,-0.00000,-0.00000,
 2.60000,-557.75680,-0.00000,9920.11824,-0.00000, 2.37184, 0.00000,345.58435, 7.23805,-0.00000, 0.00000, 0.09209, 0.00000,2089.13710,-2.25196, 0.10759,-0.14355,-135.16616, 4.51613,158577.49140,-3.05817,-0.00000,-0.00000,
 2.70000,-571.88141,-0.00000,9915.97482,-0.00000, 2.37911, 0.00000,371.85812, 7.00578,-0.00000, 0.00000, 0.05292, 0.00000,2089.01889,-2.25196, 0.16616,-0.11916,-112.04569, 4.75037,132303.72000,-2.99252,-0.00000,-0.00000,
 2.80000,-583.40429,-0.00000,9912.04793,-0.00000, 2.38238, 0.00000,397.56004, 6.75315,-0.00000, 0.00000, 0.01237, 0.00000,2088.79040,-2.25196, 0.21837,-0.09529,-89.42931, 4.97238,106601.80042,-2.92392,-0.00000,-0.00000,
 2.90000,-592.39951,-0.00000,9908.34974,-0.00000, 2.38157, 0.00000,422.36003, 6.48489,-0.00000, 0.00000,-0.02843, 0.00000,2088.46567,-2.25196, 0.26385,-0.07227,-67.60721, 5.18146,81801.80922,-2.85350,-0.00000,-0.00000,
 3.00000,-598.97189,-0.00000,9904.88831,-0.00000, 2.37672, 0.00000,445.97335, 6.20561,-0.00000, 0.00000,-0.06847, 0.00000,2088.05882,-2.25196, 0.30239,-0.05034,-46.82970, 5.37715,58188.49072,-2.78233,-0.00000,-0.00000,
 3.10000,-603.25243,-0.00000,9901.66783,-0.00000, 2.36794, 0.00000,468.16048, 5.91974,-0.00000, 0.00000,-0.10683, 0.00000,2087.58385,-2.25196, 0.33393,-0.02974,-27.30732, 5.55922,36001.35924,-2.71140,-0.00000,-0.00000,
 3.20000,-605.39388,-0.00000,9898.68886, 0.00000, 2.35544, 0.00000,488.72637, 5.63147,-0.00000, 0.00000,-0.14272, 0.00000,2087.05443,-2.25196, 0.35853,-0.01065,-9.21151, 5.72764,15435.46933,-2.64162,-0.00000,-0.00000,
 3.30000,-605.56631,-0.00000,9895.94863, 0.00000, 2.33950, 0.00000,507.51906, 5.34470,-0.00000, 0.00000,-0.17549, 0.00000,2086.48373,-2.25196, 0.37637, 0.00680, 7.32420, 5.88256,-3357.22158,-2.57383,-0.00000,-0.00000,
 3.40000,-603.95291,-0.00000,9893.44139, 0.00000, 2.32046, 0.00000,524.42781, 5.06303,-0.00000, 0.00000,-0.20459, 0.00000,2085.88427,-2.25196, 0.38774, 0.02250,22.20252, 6.02431,-20265.97605,-2.50876,-0.00000,-0.00000,
 3.50000,-600.74598,-0.00000,9891.15872, 0.00000, 2.29872, 0.00000,539.38080, 4.78970,-0.00000, 0.00000,-0.22958, 0.00000,2085.26780,-2.25196, 0.39299, 0.03638,35.36037, 6.15336,-35218.96249,-2.44703,-0.00000,-0.00000,
 3.60000,-596.14317,-0.00000,9889.08988, 0.00000, 2.27469, 0.00000,552.34242, 4.52756,-0.00000, 0.00000,-0.25015, 0.00000,2084.64519,-2.25196, 0.39257, 0.04842,46.76654, 6.27032,-48180.58103,-2.38919,-0.00000,-0.00000,
 3.70000,-590.34399,-0.00000,9887.22221, 0.00000, 2.24884, 0.00000,563.31034, 4.27910,-0.00000, 0.00000,-0.26610, 0.00000,2084.02634,-2.25196, 0.38694, 0.05860,56.41907, 6.37591,-59148.50405,-2.33567,-0.00000,-0.00000,
 3.80000,-583.54666,-0.00000,9885.54142, 0.00000, 2.22163, 0.00000,572.31234, 4.04641,-0.00000, 0.00000,-0.27732, 0.00000,2083.42018,-2.25196, 0.37666, 0.06696,64.34247, 6.47093,-68150.50338,-2.28682,-0.00000,-0.00000,
 3.90000,-575.94526,-0.00000,9884.03201, 0.00000, 2.19353, 0.00000,579.40297, 3.83119,-0.00000, 0.00000,-0.28380,-0.00000,2082.83455,-2.25196, 0.36226, 0.07354,70.58480, 6.55627,-75241.13224,-2.24287,-0.00000,-0.00000,
 4.00000,-567.72721,-0.00000,9882.67757, 0.00000, 2.16502, 0.00000,584.66016, 3.63477,-0.00000, 0.00000,-0.28561,-0.00000,2082.27624,-2.25196, 0.34434, 0.07842,75.21465, 6.63284,-80498.32567,-2.20400,-0.00000,-0.00000,
 4.10000,-559.07110,-0.00000,9881.46109, 0.00000, 2.13656, 0.00000,588.18181, 3.45809,-0.00000, 0.00000,-0.28291,-0.00000,2081.75099,-2.25196, 0.32346, 0.08169,78.31819, 6.70161,-84019.97823,-2.17026,-0.00000,-0.00000,
 4.20000,-550.14489,-0.00000,9880.36528, 0.00000, 2.10858, 0.00000,590.08239, 3.30177,-0.00000, 0.00000,-0.27591,-0.00000,2081.26348,-2.25196, 0.30019, 0.08345,79.99614, 6.76357,-85920.55258,-2.14166,-0.00000,-0.00000,
 4.30000,-541.10441,-0.00000,9879.37285, 0.00000, 2.08151, 0.00000,590.48960, 3.16606,-0.00000, 0.00000,-0.26489,-0.00000,2080.81738,-2.25196, 0.27511, 0.08383,80.36087, 6.81967,-86327.76667,-2.11813,-0.00000,-0.00000,
 4.40000,-532.09217,-0.00000,9878.46678, 0.00000, 2.05573, 0.00000,589.54124, 3.05093,-0.00000, 0.00000,-0.25016,-0.00000,2080.41537,-2.25196, 0.24876, 0.08295,79.53358, 6.87090,-85379.40171,-2.09951,-0.00000,-0.00000,
 4.50000,-523.23653,-0.00000,9877.63048, 0.00000, 2.03159, 0.00000,587.38210, 2.95608,-0.00000, 0.00000,-0.23209,-0.00000,2080.05923,-2.25196, 0.22163, 0.08094,77.64168, 6.91818,-83220.26702,-2.08563,-0.00000,-0.00000,
 4.60000,-514.65114,-0.00000,9876.84808, 0.00000, 2.00941, 0.00000,584.16119, 2.88093,-0.00000, 0.00000,-0.21106,-0.00000,2079.74988,-2.25196, 0.19421, 0.07795,74.81620, 6.96241,-79999.35231,-2.07622,-0.00000,-0.00000,
 4.70000,-506.43466,-0.00000,9876.10454, 0.00000, 1.98947, 0.00000,580.02903, 2.82470,-0.00000,-0.00000,-0.18749,-0.00000,2079.48745,-2.25196, 0.16695, 0.07411,71.18957, 7.00445,-75867.19173,-2.07102,-0.00000,-0.00000,
 4.80000,-498.67072,-0.00000,9875.38582, 0.00000, 1.97199, 0.00000,575.13530, 2.78641,-0.00000,-0.00000,-0.16179,-0.00000,2079.27133,-2.25196, 0.14024, 0.06956,66.89342, 7.04508,-70973.45908,-2.06970,-0.00000,-0.00000,
 4.90000,-491.42809,-0.00000,9874.67899, 0.00000, 1.95716, 0.00000,569.62664, 2.76493,-0.00000,-0.00000,-0.13439,-0.00000,2079.10032,-2.25196, 0.11443, 0.06444,62.05674, 7.08504,-65464.80769,-2.07193,-0.00000,-0.00000,
 5.00000,-484.76115,-0.00000,9873.97230, 0.00000, 1.94515, 0.00000,563.64480, 2.75899,-0.00000,-0.00000,-0.10570,-0.00000,2078.97263,-2.25196, 0.08983, 0.05889,56.80417, 7.12499,-59482.96393,-2.07843,-0.00000,-0.00000,
 5.10000,-478.71043,-0.00000,9873.25508, 0.00000, 1.93848, 0.00000,557.32386, 2.77029,-0.00000,-0.00000,-0.00533,-0.00000,2078.88539,-2.25196, 0.06516, 0.05302,51.25364, 7.16554,-53162.02180,-2.18210,-0.00000,-0.00000,
 5.20000,-473.30341,-0.00000,9872.51807, 0.00000, 1.94327, 0.00000,550.79138, 2.80179, 0.00000,-0.00000, 0.09515,-0.00000,2078.83749,-2.25196, 0.04806, 0.04695,45.51733, 7.20721,-46629.54410,-2.23841,-0.00000,-0.00000,
 5.30000,-468.55528,-0.00000,9871.75464, 0.00000, 1.95798,-0.00000,544.16501, 2.85010, 0.00000,-0.00000, 0.19804,-0.00000,2078.82487,-2.25196, 0.03292, 0.04079,39.69868, 7.25037,-40003.17855,-2.22661,-0.00000,-0.00000,
 5.40000,-464.46993,-0.00000,9870.95962, 0.00000, 1.98247,-0.00000,537.55260, 2.91308, 0.00000,-0.00000, 0.29179,-0.00000,2078.84453,-2.25196, 0.02058, 0.03465,33.89251, 7.29532,-33390.76696,-2.26111,-0.00000,-0.00000,
 5.50000,-461.04104,-0.00000,9870.12949, 0.00000, 2.01622,-0.00000,531.05117, 2.98852, 0.00000,-0.00000, 0.38184,-0.00000,2078.89309,-2.25196, 0.01123, 0.02861,28.18413, 7.34225,-26889.33798,-2.28315,-0.00000,-0.00000,
 5.60000,-458.25312,-0.00000,9869.26219, 0.00000, 2.05867,-0.00000,524.74682, 3.07419, 0.00000,-0.00000, 0.46647,-0.00000,2078.96701,-2.25196, 0.00453, 0.02275,22.64920, 7.39128,-20584.97901,-2.30850,-0.00000,-0.00000,
 5.70000,-456.08261,-0.00000,9868.35707, 0.00000, 2.10932,-0.00000,518.71433, 3.16807, 0.00000,-0.00000, 0.54567,-0.00000,2079.06279,-2.25196, 0.00048, 0.01715,17.35349, 7.44245,-14552.49690,-2.33550,-0.00000,-0.00000,
 5.80000,-454.49906,-0.00000,9867.41474, 0.00000, 2.16763,-0.00000,513.01724, 3.26820, 0.00000,-0.00000, 0.61949,-0.00000,2079.17688,-2.25196,-0.00109, 0.01186,12.35281, 7.49573,-8855.40663,-2.36233,-0.00000,-0.00000,
 5.90000,-453.46622,-0.00000,9866.43699,-0.00000, 2.23304,-0.00000,507.70791, 3.37275, 0.00000,-0.00000, 0.68779,-0.00000,2079.30585,-2.25196,-0.00033, 0.00692, 7.69317, 7.55100,-3546.07248,-2.38951,-0.00000,-0.00000,
 6.00000,-452.94315,-0.00000,9865.42667,-0.00000, 2.30500,-0.00000,502.82783, 3.48006, 0.00000,-0.00000, 0.75060,-0.00000,2079.44634,-2.25196, 0.00260, 0.00239, 3.41103, 7.60812,1334.00403,-2.41641,-0.00000,-0.00000,
 6.10000,-452.88530,-0.00000,9864.38753,-0.00000, 2.38298,-0.00000,498.40808, 3.58857, 0.00000,-0.00000, 0.80794,-0.00000,2079.59516,-2.25196, 0.00752,-0.00172,-0.46633, 7.66687,5753.75552,-2.44277,-0.00000,-0.00000,
 6.20000,-453.24548,-0.00000,9863.32416,-0.00000, 2.46641,-0.00000,494.46983, 3.69689, 0.00000,-0.00000, 0.85987,-0.00000,2079.74931,-2.25196, 0.01423,-0.00538,-3.92034, 7.72699,9692.00742,-2.46833,-0.00000,-0.00000,
 6.30000,-453.97488,-0.00000,9862.24180,-0.00000, 2.55477,-0.00000,491.02500, 3.80376, 0.00000,-0.00000, 0.90647,-0.00000,2079.90599,-2.25196, 0.02253,-0.00858,-6.94055, 7.78818,13136.84017,-2.49286,-0.00000,-0.00000,
 6.40000,-455.02391,-0.00000,9861.14629,-0.00000, 2.64753,-0.00000,488.07696, 3.90808, 0.00000,-0.00000, 0.94789,-0.00000,2080.06264,-2.25196, 0.03223,-0.01132,-9.52403, 7.85011,16084.87431,-2.51616,-0.00000,-0.00000,
 6.50000,-456.34306,-0.00000,9860.04388,-0.00000, 2.74418,-0.00000,485.62134, 4.00890, 0.00000,-0.00000, 0.98426,-0.00000,2080.21694,-2.25196, 0.04312,-0.01360,-11.67469, 7.91244,18540.49670,-2.53807,-0.00000,-0.00000,
 6.60000,-457.88360,-0.00000,9858.94117,-0.00000, 2.84422,-0.00000,483.64679, 4.10540, 0.00000,-0.00000, 1.01575, 0.00000,2080.36683,-2.25196, 0.05498,-0.01544,-13.40254, 7.97478,20515.04496,-2.55847,-0.00000,-0.00000,
 6.70000,-459.59824,-0.00000,9857.84500,-0.00000, 2.94717,-0.00000,482.13587, 4.19690, 0.00000,-0.00000, 1.04257, 0.00000,2080.51052,-2.25196, 0.06763,-0.01684,-14.72294, 8.03675,22025.96649,-2.57727,-0.00000,-0.00000,
 6.80000,-461.44172,-0.00000,9856.76233,-0.00000, 3.05259,-0.00000,481.06587, 4.28284, 0.00000,-0.00000, 1.06493, 0.00000,2080.64650,-2.25196, 0.08086,-0.01784,-15.65592, 8.09796,23095.96712,-2.59438,-0.00000,-0.00000,
 6.90000,-463.37127,-0.00000,9855.70012,-0.00000, 3.16002,-0.00000,480.40967, 4.36282, 0.00000,-0.00000, 1.08304, 0.00000,2080.77348,-2.25196, 0.09449,-0.01845,-16.22534, 8.15801,23752.16307,-2.60978,-0.00000,-0.00000,
 7.00000,-465.34702,-0.00000,9854.66533,-0.00000, 3.26906,-0.00000,480.13659, 4.43653, 0.00000,-0.00000, 1.09716, 0.00000,2080.89048,-2.25196, 0.10834,-0.01870,-16.45824, 8.21652,24025.24872,-2.62345,-0.00000,-0.00000,
 7.10000,-467.33230,-0.00000,9853.66475,-0.00000, 3.37933,-0.00000,480.21315, 4.50376, 0.00000,-0.00000, 1.10753, 0.00000,2080.99673,-2.25196, 0.12223,-0.01863,-16.38407, 8.27308,23948.69100,-2.63539,-0.00000,-0.00000,
 7.20000,-469.29391,-0.00000,9852.70498,-0.00000, 3.49045,-0.00000,480.60388, 4.56443, 0.00000, 0.00000, 1.11440, 0.00000,2081.09171,-2.25196, 0.13602,-0.01827,-16.03405, 8.32734,23557.96004,-2.64564,-0.00000,-0.00000,
 7.30000,-471.20227,-0.00000,9851.79237,-0.00000, 3.60210,-0.00000,481.27203, 4.61853, 0.00000, 0.00000, 1.11804, 0.00000,2081.17511,-2.25196, 0.14955,-0.01765,-15.44053, 8.37894,22889.80400,-2.65423,-0.00000,-0.00000,
 7.40000,-473.03150,-0.00000,9850.93293,-0.00000, 3.71396,-0.00000,482.18026, 4.66613, 0.00000, 0.00000, 1.11869, 0.00000,2081.24683,-2.25196, 0.16271,-0.01681,-14.63638, 8.42753,21981.57477,-2.66124,-0.00000,-0.00000,
 7.50000,-474.75946,-0.00000,9850.13234,-0.00000, 3.82575,-0.00000,483.29123, 4.70738, 0.00000, 0.00000, 1.11663, 0.00000,2081.30695,-2.25196, 0.17536,-0.01578,-13.65445, 8.47279,20870.60965,-2.66672,-0.00000,-0.00000,
 7.60000,-476.36773,-0.00000,9849.39587,-0.00000, 3.93720,-0.00000,484.56816, 4.74250, 0.00000, 0.00000, 1.11210, 0.00000,2081.35572,-2.25196, 0.18741,-0.01460,-12.52709, 8.51442,19593.67298,-2.67077,-0.00000,-0.00000,
 7.70000,-477.84149,-0.00000,9848.72838,-0.00000, 4.04809,-0.00000,485.97538, 4.77174, 0.00000, 0.00000, 1.10535, 0.00000,2081.39353,-2.25196, 0.19878,-0.01329,-11.28570, 8.55216,18186.46022,-2.67348,-0.00000,-0.00000,
 7.80000,-479.16945,-0.00000,9848.13427,-0.00000, 4.15821,-0.00000,487.47867, 4.79540, 0.00000, 0.00000, 1.09662, 0.00000,2081.42090,-2.25196, 0.20939,-0.01190,-9.96037, 8.58575,16683.16589,-2.67494,-0.00000,-0.00000,
 7.90000,-480.34363,-0.00000,9847.61751,-0.00000, 4.26736,-0.00000,489.04572, 4.81383, 0.00000, 0.00000, 1.08614, 0.00000,2081.43847,-2.25196, 0.21918,-0.01044,-8.57954, 8.61496,15116.11576,-2.67526,-0.00000,-0.00000,
 8.00000,-481.35919,-0.00000,9847.18159, 0.00000, 4.37538,-0.00000,490.64637, 4.82739,-0.00000, 0.00000, 1.07415, 0.00000,2081.44693,-2.25196, 0.22811,-0.00896,-7.16973, 8.63961,13515.46252,-2.67454,-0.00000,-0.00000,
 8.10000,-482.21417,-0.00000,9846.82955, 0.00000, 4.48214, 0.00000,492.25289, 4.83646,-0.00000, 0.00000, 1.06083, 0.00000,2081.44708,-2.25196, 0.23615,-0.00746,-5.75534, 8.65951,11908.94343,-2.67288,-0.00000,-0.00000,
 8.20000,-482.90926,-0.00000,9846.56398, 0.00000, 4.58751, 0.00000,493.84014, 4.84143,-0.00000, 0.00000, 1.04641, 0.00000,2081.43973,-2.25196, 0.24327,-0.00599,-4.35849, 8.67453,10321.69755,-2.67039,-0.00000,-0.00000,
 8.30000,-483.44753,-0.00000,9846.38702, 0.00000, 4.69139, 0.00000,495.38570, 4.84271,-0.00000, 0.00000, 1.03105, 0.00000,2081.42576,-2.25196, 0.24948,-0.00456,-2.99888, 8.68453,8776.13954,-2.66718,-0.00000,-0.00000,
 8.40000,-483.83416,-0.00000,9846.30038, 0.00000, 4.79370, 0.00000,496.86995, 4.84070,-0.00000, 0.00000, 1.01494, 0.00000,2081.40603,-2.25196, 0.25477,-0.00318,-1.69378, 8.68943,7291.88658,-2.66334,-0.00000,-0.00000,
 8.50000,-484.07615,-0.00000,9846.30536, 0.00000, 4.89436, 0.00000,498.27610, 4.83577,-0.00000, 0.00000, 0.99822, 0.00000,2081.38142,-2.25196, 0.25915,-0.00187,-0.45795, 8.68915,5885.73418,-2.65896,-0.00000,-0.00000,
 8.60000,-484.18202,-0.00000,9846.40288, 0.00000, 4.99333, 0.00000,499.59016, 4.82832,-0.00000, 0.00000, 0.98106, 0.00000,2081.35279,-2.25196, 0.26266,-0.00065, 0.69630, 8.68363,4571.67669,-2.65415,-0.00000,-0.00000,
 8.70000,-484.16156,-0.00000,9846.59348, 0.00000, 5.09056, 0.00000,500.80087, 4.81870,-0.00000, 0.00000, 0.96357, 0.00000,2081.32100,-2.25196, 0.26531, 0.00047, 1.75908, 8.67286,3360.96786,-2.64897,-0.00000,-0.00000,
 8.80000,-484.02558,-0.00000,9846.87738, 0.00000, 5.18604, 0.00000,501.89962, 4.80726,-0.00000, 0.00000, 0.94588, 0.00000,2081.28684,-2.25196, 0.26715, 0.00150, 2.72282, 8.65681,2262.21659,-2.64351,-0.00000,-0.00000,
 8.90000,-483.78558,-0.00000,9847.25448, 0.00000, 5.27973, 0.00000,502.88032, 4.79433,-0.00000, 0.00000, 0.92809, 0.00000,2081.25109,-2.25196, 0.26821, 0.00241, 3.58216, 8.63549,1281.51314,-2.63785,-0.00000,-0.00000,
